
 Phase Region for:
     BCC_A2                        
     FCC_A1#1                      
     FCC_A1#2                      
     HCP_A3#1                      
     HCP_A3#2                      
 col-1=W(MN), col-2=GM(FCC_A1#1), col-3=GM(BCC_A2), col-4=GM(HCP_A3#1), col-5=GM1, col-6=GM2,
   5.12134E-03  -5.80232E+03  -1.04459E+04  -6.42216E+03  -4.64363E+03  -6.19849E+02
   6.12134E-03  -5.82866E+03  -1.04516E+04  -6.44574E+03  -4.62291E+03  -6.17077E+02
   7.12134E-03  -5.85447E+03  -1.04567E+04  -6.46878E+03  -4.60221E+03  -6.14313E+02
   8.12134E-03  -5.87981E+03  -1.04613E+04  -6.49137E+03  -4.58153E+03  -6.11557E+02
   9.12134E-03  -5.90475E+03  -1.04656E+04  -6.51356E+03  -4.56088E+03  -6.08808E+02
   1.01213E-02  -5.92933E+03  -1.04696E+04  -6.53539E+03  -4.54026E+03  -6.06066E+02
   1.11213E-02  -5.95357E+03  -1.04732E+04  -6.55690E+03  -4.51966E+03  -6.03332E+02
   1.21213E-02  -5.97751E+03  -1.04766E+04  -6.57812E+03  -4.49908E+03  -6.00605E+02
   1.31213E-02  -6.00118E+03  -1.04797E+04  -6.59906E+03  -4.47852E+03  -5.97886E+02
   1.41213E-02  -6.02458E+03  -1.04826E+04  -6.61975E+03  -4.45799E+03  -5.95174E+02
   1.51213E-02  -6.04774E+03  -1.04852E+04  -6.64021E+03  -4.43748E+03  -5.92469E+02
   1.61213E-02  -6.07068E+03  -1.04877E+04  -6.66045E+03  -4.41700E+03  -5.89771E+02
   1.71213E-02  -6.09340E+03  -1.04899E+04  -6.68048E+03  -4.39654E+03  -5.87080E+02
   1.81213E-02  -6.11593E+03  -1.04920E+04  -6.70032E+03  -4.37610E+03  -5.84397E+02
   1.91213E-02  -6.13825E+03  -1.04939E+04  -6.71998E+03  -4.35569E+03  -5.81720E+02
   2.01213E-02  -6.16040E+03  -1.04957E+04  -6.73945E+03  -4.33530E+03  -5.79051E+02
   2.11213E-02  -6.18237E+03  -1.04973E+04  -6.75876E+03  -4.31493E+03  -5.76389E+02
   2.21213E-02  -6.20418E+03  -1.04988E+04  -6.77791E+03  -4.29459E+03  -5.73734E+02
   2.31213E-02  -6.22582E+03  -1.05001E+04  -6.79691E+03  -4.27427E+03  -5.71085E+02
   2.41213E-02  -6.24731E+03  -1.05013E+04  -6.81576E+03  -4.25398E+03  -5.68444E+02
   2.51213E-02  -6.26866E+03  -1.05024E+04  -6.83447E+03  -4.23371E+03  -5.65809E+02
   2.61213E-02  -6.28986E+03  -1.05033E+04  -6.85304E+03  -4.21346E+03  -5.63181E+02
   2.71213E-02  -6.31092E+03  -1.05042E+04  -6.87148E+03  -4.19324E+03  -5.60560E+02
   2.81213E-02  -6.33184E+03  -1.05049E+04  -6.88979E+03  -4.17304E+03  -5.57946E+02
   2.91213E-02  -6.35264E+03  -1.05055E+04  -6.90798E+03  -4.15286E+03  -5.55339E+02
   3.01213E-02  -6.37331E+03  -1.05060E+04  -6.92605E+03  -4.13271E+03  -5.52738E+02
   3.11213E-02  -6.39386E+03  -1.05064E+04  -6.94401E+03  -4.11258E+03  -5.50143E+02
   3.21213E-02  -6.41430E+03  -1.05068E+04  -6.96185E+03  -4.09247E+03  -5.47555E+02
   3.31213E-02  -6.43461E+03  -1.05070E+04  -6.97959E+03  -4.07239E+03  -5.44974E+02
   3.41213E-02  -6.45482E+03  -1.05071E+04  -6.99722E+03  -4.05233E+03  -5.42399E+02
   3.51213E-02  -6.47491E+03  -1.05072E+04  -7.01474E+03  -4.03229E+03  -5.39831E+02
   3.61213E-02  -6.49490E+03  -1.05072E+04  -7.03217E+03  -4.01228E+03  -5.37269E+02
   3.71213E-02  -6.51478E+03  -1.05071E+04  -7.04949E+03  -3.99229E+03  -5.34713E+02
   3.81213E-02  -6.53456E+03  -1.05069E+04  -7.06673E+03  -3.97233E+03  -5.32163E+02
   3.91213E-02  -6.55424E+03  -1.05066E+04  -7.08386E+03  -3.95238E+03  -5.29620E+02
   4.01213E-02  -6.57383E+03  -1.05063E+04  -7.10091E+03  -3.93246E+03  -5.27083E+02
   4.11213E-02  -6.59332E+03  -1.05059E+04  -7.11787E+03  -3.91257E+03  -5.24552E+02
   4.21213E-02  -6.61271E+03  -1.05054E+04  -7.13474E+03  -3.89270E+03  -5.22027E+02
   4.31213E-02  -6.63202E+03  -1.05049E+04  -7.15152E+03  -3.87285E+03  -5.19507E+02
   4.41213E-02  -6.65123E+03  -1.05042E+04  -7.16822E+03  -3.85302E+03  -5.16994E+02
   4.51213E-02  -6.67035E+03  -1.05036E+04  -7.18484E+03  -3.83322E+03  -5.14487E+02
   4.61213E-02  -6.68939E+03  -1.05028E+04  -7.20138E+03  -3.81344E+03  -5.11986E+02
   4.71213E-02  -6.70835E+03  -1.05020E+04  -7.21784E+03  -3.79368E+03  -5.09490E+02
   4.81213E-02  -6.72722E+03  -1.05012E+04  -7.23422E+03  -3.77395E+03  -5.07000E+02
   4.91213E-02  -6.74601E+03  -1.05002E+04  -7.25052E+03  -3.75424E+03  -5.04516E+02
   5.01213E-02  -6.76472E+03  -1.04993E+04  -7.26675E+03  -3.73455E+03  -5.02038E+02
   5.11213E-02  -6.78335E+03  -1.04982E+04  -7.28291E+03  -3.71489E+03  -4.99565E+02
   5.21213E-02  -6.80190E+03  -1.04971E+04  -7.29899E+03  -3.69525E+03  -4.97097E+02
   5.31213E-02  -6.82037E+03  -1.04960E+04  -7.31501E+03  -3.67563E+03  -4.94636E+02
   5.41213E-02  -6.83877E+03  -1.04948E+04  -7.33095E+03  -3.65604E+03  -4.92179E+02
   5.51213E-02  -6.85709E+03  -1.04936E+04  -7.34682E+03  -3.63646E+03  -4.89728E+02
   5.61213E-02  -6.87534E+03  -1.04923E+04  -7.36263E+03  -3.61691E+03  -4.87282E+02
   5.71213E-02  -6.89352E+03  -1.04909E+04  -7.37836E+03  -3.59739E+03  -4.84841E+02
   5.81213E-02  -6.91163E+03  -1.04895E+04  -7.39404E+03  -3.57789E+03  -4.82406E+02
   5.91213E-02  -6.92967E+03  -1.04881E+04  -7.40964E+03  -3.55841E+03  -4.79976E+02
   6.01213E-02  -6.94764E+03  -1.04866E+04  -7.42519E+03  -3.53895E+03  -4.77551E+02
   6.11213E-02  -6.96554E+03  -1.04851E+04  -7.44067E+03  -3.51952E+03  -4.75131E+02
   6.21213E-02  -6.98337E+03  -1.04835E+04  -7.45608E+03  -3.50010E+03  -4.72715E+02
   6.31213E-02  -7.00114E+03  -1.04819E+04  -7.47144E+03  -3.48072E+03  -4.70305E+02
   6.41213E-02  -7.01884E+03  -1.04802E+04  -7.48674E+03  -3.46135E+03  -4.67900E+02
   6.51213E-02  -7.03647E+03  -1.04785E+04  -7.50197E+03  -3.44201E+03  -4.65499E+02
   6.61213E-02  -7.05404E+03  -1.04767E+04  -7.51715E+03  -3.42269E+03  -4.63104E+02
   6.71213E-02  -7.07155E+03  -1.04749E+04  -7.53226E+03  -3.40339E+03  -4.60713E+02
   6.81213E-02  -7.08900E+03  -1.04731E+04  -7.54732E+03  -3.38411E+03  -4.58326E+02
   6.91213E-02  -7.10638E+03  -1.04712E+04  -7.56233E+03  -3.36486E+03  -4.55944E+02
   7.01213E-02  -7.12370E+03  -1.04693E+04  -7.57727E+03  -3.34563E+03  -4.53567E+02
   7.11213E-02  -7.14097E+03  -1.04674E+04  -7.59216E+03  -3.32643E+03  -4.51194E+02
   7.21213E-02  -7.15817E+03  -1.04654E+04  -7.60700E+03  -3.30724E+03  -4.48826E+02
   7.31213E-02  -7.17531E+03  -1.04634E+04  -7.62178E+03  -3.28808E+03  -4.46462E+02
   7.41213E-02  -7.19240E+03  -1.04613E+04  -7.63650E+03  -3.26894E+03  -4.44102E+02
   7.51213E-02  -7.20943E+03  -1.04593E+04  -7.65118E+03  -3.24982E+03  -4.41747E+02
   7.61213E-02  -7.22640E+03  -1.04571E+04  -7.66580E+03  -3.23073E+03  -4.39396E+02
   7.71213E-02  -7.24331E+03  -1.04550E+04  -7.68036E+03  -3.21166E+03  -4.37049E+02
   7.81213E-02  -7.26017E+03  -1.04528E+04  -7.69488E+03  -3.19261E+03  -4.34706E+02
   7.91213E-02  -7.27698E+03  -1.04506E+04  -7.70934E+03  -3.17358E+03  -4.32367E+02
   8.01213E-02  -7.29373E+03  -1.04483E+04  -7.72376E+03  -3.15458E+03  -4.30032E+02
   8.11213E-02  -7.31042E+03  -1.04460E+04  -7.73812E+03  -3.13560E+03  -4.27702E+02
   8.21213E-02  -7.32706E+03  -1.04437E+04  -7.75244E+03  -3.11664E+03  -4.25375E+02
   8.31213E-02  -7.34365E+03  -1.04414E+04  -7.76670E+03  -3.09770E+03  -4.23052E+02
   8.41213E-02  -7.36018E+03  -1.04390E+04  -7.78092E+03  -3.07879E+03  -4.20732E+02
   8.51213E-02  -7.37667E+03  -1.04366E+04  -7.79508E+03  -3.05989E+03  -4.18417E+02
   8.61213E-02  -7.39310E+03  -1.04341E+04  -7.80920E+03  -3.04102E+03  -4.16105E+02
   8.71213E-02  -7.40948E+03  -1.04317E+04  -7.82328E+03  -3.02218E+03  -4.13797E+02
   8.81213E-02  -7.42581E+03  -1.04292E+04  -7.83730E+03  -3.00335E+03  -4.11492E+02
   8.91213E-02  -7.44209E+03  -1.04266E+04  -7.85128E+03  -2.98455E+03  -4.09191E+02
   9.01213E-02  -7.45832E+03  -1.04241E+04  -7.86521E+03  -2.96577E+03  -4.06893E+02
   9.11213E-02  -7.47450E+03  -1.04215E+04  -7.87910E+03  -2.94701E+03  -4.04599E+02
   9.21213E-02  -7.49063E+03  -1.04189E+04  -7.89294E+03  -2.92827E+03  -4.02308E+02
   9.31213E-02  -7.50671E+03  -1.04163E+04  -7.90673E+03  -2.90956E+03  -4.00021E+02
   9.41213E-02  -7.52275E+03  -1.04136E+04  -7.92048E+03  -2.89087E+03  -3.97737E+02
   9.51213E-02  -7.53873E+03  -1.04109E+04  -7.93419E+03  -2.87220E+03  -3.95456E+02
   9.61213E-02  -7.55467E+03  -1.04082E+04  -7.94785E+03  -2.85355E+03  -3.93178E+02
   9.71213E-02  -7.57056E+03  -1.04055E+04  -7.96147E+03  -2.83493E+03  -3.90904E+02
   9.81213E-02  -7.58641E+03  -1.04027E+04  -7.97504E+03  -2.81632E+03  -3.88632E+02
   9.91213E-02  -7.60221E+03  -1.04000E+04  -7.98857E+03  -2.79774E+03  -3.86364E+02
   1.00121E-01  -7.61796E+03  -1.03971E+04  -8.00206E+03  -2.77918E+03  -3.84099E+02
   1.01121E-01  -7.63367E+03  -1.03943E+04  -8.01551E+03  -2.76065E+03  -3.81836E+02
   1.02121E-01  -7.64934E+03  -1.03915E+04  -8.02891E+03  -2.74213E+03  -3.79577E+02
   1.03121E-01  -7.66496E+03  -1.03886E+04  -8.04228E+03  -2.72364E+03  -3.77320E+02
   1.04121E-01  -7.68053E+03  -1.03857E+04  -8.05560E+03  -2.70517E+03  -3.75066E+02
   1.05121E-01  -7.69606E+03  -1.03828E+04  -8.06887E+03  -2.68672E+03  -3.72816E+02
   1.06121E-01  -7.71155E+03  -1.03798E+04  -8.08211E+03  -2.66830E+03  -3.70567E+02
   1.07121E-01  -7.72699E+03  -1.03769E+04  -8.09531E+03  -2.64989E+03  -3.68322E+02
   1.08121E-01  -7.74239E+03  -1.03739E+04  -8.10847E+03  -2.63151E+03  -3.66079E+02
   1.09121E-01  -7.75775E+03  -1.03709E+04  -8.12158E+03  -2.61315E+03  -3.63839E+02
   1.10121E-01  -7.77306E+03  -1.03679E+04  -8.13466E+03  -2.59481E+03  -3.61601E+02
   1.11121E-01  -7.78833E+03  -1.03648E+04  -8.14770E+03  -2.57650E+03  -3.59366E+02
   1.12121E-01  -7.80356E+03  -1.03618E+04  -8.16070E+03  -2.55820E+03  -3.57134E+02
   1.13121E-01  -7.81875E+03  -1.03587E+04  -8.17365E+03  -2.53993E+03  -3.54904E+02
   1.14121E-01  -7.83390E+03  -1.03556E+04  -8.18657E+03  -2.52168E+03  -3.52676E+02
   1.15121E-01  -7.84900E+03  -1.03525E+04  -8.19946E+03  -2.50345E+03  -3.50451E+02
   1.16121E-01  -7.86407E+03  -1.03493E+04  -8.21230E+03  -2.48525E+03  -3.48228E+02
   1.17121E-01  -7.87909E+03  -1.03462E+04  -8.22510E+03  -2.46707E+03  -3.46007E+02
   1.18121E-01  -7.89408E+03  -1.03430E+04  -8.23787E+03  -2.44891E+03  -3.43789E+02
   1.19121E-01  -7.90902E+03  -1.03398E+04  -8.25060E+03  -2.43077E+03  -3.41573E+02
   1.20121E-01  -7.92393E+03  -1.03366E+04  -8.26329E+03  -2.41265E+03  -3.39359E+02
   1.21121E-01  -7.93879E+03  -1.03333E+04  -8.27594E+03  -2.39456E+03  -3.37147E+02
   1.22121E-01  -7.95362E+03  -1.03301E+04  -8.28856E+03  -2.37648E+03  -3.34938E+02
   1.23121E-01  -7.96841E+03  -1.03268E+04  -8.30114E+03  -2.35843E+03  -3.32730E+02
   1.24121E-01  -7.98316E+03  -1.03236E+04  -8.31368E+03  -2.34040E+03  -3.30525E+02
   1.25121E-01  -7.99786E+03  -1.03203E+04  -8.32619E+03  -2.32240E+03  -3.28322E+02
   1.26121E-01  -8.01254E+03  -1.03169E+04  -8.33866E+03  -2.30441E+03  -3.26120E+02
   1.27121E-01  -8.02717E+03  -1.03136E+04  -8.35109E+03  -2.28645E+03  -3.23921E+02
   1.28121E-01  -8.04176E+03  -1.03103E+04  -8.36349E+03  -2.26851E+03  -3.21723E+02
   1.29121E-01  -8.05632E+03  -1.03069E+04  -8.37585E+03  -2.25059E+03  -3.19528E+02
   1.30121E-01  -8.07084E+03  -1.03035E+04  -8.38818E+03  -2.23270E+03  -3.17334E+02
   1.31121E-01  -8.08533E+03  -1.03001E+04  -8.40047E+03  -2.21482E+03  -3.15142E+02
   1.32121E-01  -8.09977E+03  -1.02967E+04  -8.41272E+03  -2.19697E+03  -3.12952E+02
   1.33121E-01  -8.11418E+03  -1.02933E+04  -8.42494E+03  -2.17914E+03  -3.10764E+02
   1.34121E-01  -8.12855E+03  -1.02899E+04  -8.43713E+03  -2.16134E+03  -3.08578E+02
   1.35121E-01  -8.14289E+03  -1.02864E+04  -8.44928E+03  -2.14355E+03  -3.06393E+02
   1.36121E-01  -8.15719E+03  -1.02830E+04  -8.46140E+03  -2.12579E+03  -3.04210E+02
   1.37121E-01  -8.17145E+03  -1.02795E+04  -8.47348E+03  -2.10805E+03  -3.02029E+02
   1.38121E-01  -8.18568E+03  -1.02760E+04  -8.48553E+03  -2.09033E+03  -2.99849E+02
   1.39121E-01  -8.19987E+03  -1.02725E+04  -8.49754E+03  -2.07263E+03  -2.97671E+02
   1.40121E-01  -8.21403E+03  -1.02690E+04  -8.50952E+03  -2.05496E+03  -2.95494E+02
   1.41121E-01  -8.22815E+03  -1.02655E+04  -8.52147E+03  -2.03731E+03  -2.93319E+02
   1.42121E-01  -8.24224E+03  -1.02619E+04  -8.53338E+03  -2.01968E+03  -2.91146E+02
   1.43121E-01  -8.25629E+03  -1.02584E+04  -8.54526E+03  -2.00207E+03  -2.88974E+02
   1.44121E-01  -8.27031E+03  -1.02548E+04  -8.55711E+03  -1.98449E+03  -2.86804E+02
   1.45121E-01  -8.28429E+03  -1.02512E+04  -8.56892E+03  -1.96693E+03  -2.84635E+02
   1.46121E-01  -8.29824E+03  -1.02476E+04  -8.58070E+03  -1.94939E+03  -2.82468E+02
   1.47121E-01  -8.31215E+03  -1.02440E+04  -8.59245E+03  -1.93187E+03  -2.80302E+02
   1.48121E-01  -8.32603E+03  -1.02404E+04  -8.60417E+03  -1.91438E+03  -2.78137E+02
   1.49121E-01  -8.33987E+03  -1.02368E+04  -8.61585E+03  -1.89691E+03  -2.75974E+02
   1.50121E-01  -8.35369E+03  -1.02331E+04  -8.62750E+03  -1.87946E+03  -2.73812E+02
   1.51121E-01  -8.36746E+03  -1.02295E+04  -8.63912E+03  -1.86203E+03  -2.71652E+02
   1.52121E-01  -8.38121E+03  -1.02258E+04  -8.65070E+03  -1.84462E+03  -2.69492E+02
   1.53121E-01  -8.39492E+03  -1.02222E+04  -8.66226E+03  -1.82724E+03  -2.67335E+02
   1.54121E-01  -8.40860E+03  -1.02185E+04  -8.67378E+03  -1.80988E+03  -2.65178E+02
   1.55121E-01  -8.42224E+03  -1.02148E+04  -8.68527E+03  -1.79255E+03  -2.63023E+02
   1.56121E-01  -8.43586E+03  -1.02111E+04  -8.69673E+03  -1.77523E+03  -2.60869E+02
   1.57121E-01  -8.44944E+03  -1.02074E+04  -8.70815E+03  -1.75794E+03  -2.58716E+02
   1.58121E-01  -8.46298E+03  -1.02037E+04  -8.71955E+03  -1.74067E+03  -2.56564E+02
   1.59121E-01  -8.47650E+03  -1.01999E+04  -8.73091E+03  -1.72343E+03  -2.54414E+02
   1.60121E-01  -8.48998E+03  -1.01962E+04  -8.74224E+03  -1.70620E+03  -2.52264E+02
   1.61121E-01  -8.50343E+03  -1.01924E+04  -8.75355E+03  -1.68900E+03  -2.50116E+02
   1.62121E-01  -8.51685E+03  -1.01887E+04  -8.76482E+03  -1.67183E+03  -2.47969E+02
   1.63121E-01  -8.53023E+03  -1.01849E+04  -8.77606E+03  -1.65467E+03  -2.45823E+02
   1.64121E-01  -8.54359E+03  -1.01811E+04  -8.78727E+03  -1.63754E+03  -2.43678E+02
   1.65121E-01  -8.55691E+03  -1.01773E+04  -8.79845E+03  -1.62043E+03  -2.41535E+02
   1.66121E-01  -8.57020E+03  -1.01735E+04  -8.80959E+03  -1.60334E+03  -2.39392E+02
   1.67121E-01  -8.58346E+03  -1.01697E+04  -8.82071E+03  -1.58628E+03  -2.37250E+02
   1.68121E-01  -8.59669E+03  -1.01659E+04  -8.83180E+03  -1.56924E+03  -2.35109E+02
   1.69121E-01  -8.60989E+03  -1.01621E+04  -8.84286E+03  -1.55222E+03  -2.32970E+02
   1.70121E-01  -8.62306E+03  -1.01583E+04  -8.85389E+03  -1.53523E+03  -2.30831E+02
   1.71121E-01  -8.63619E+03  -1.01544E+04  -8.86488E+03  -1.51826E+03  -2.28693E+02
   1.72121E-01  -8.64930E+03  -1.01506E+04  -8.87585E+03  -1.50131E+03  -2.26557E+02
   1.73121E-01  -8.66237E+03  -1.01468E+04  -8.88679E+03  -1.48439E+03  -2.24421E+02
   1.74121E-01  -8.67541E+03  -1.01429E+04  -8.89770E+03  -1.46748E+03  -2.22286E+02
   1.75121E-01  -8.68843E+03  -1.01390E+04  -8.90858E+03  -1.45061E+03  -2.20152E+02
   1.76121E-01  -8.70141E+03  -1.01352E+04  -8.91943E+03  -1.43375E+03  -2.18019E+02
   1.77121E-01  -8.71436E+03  -1.01313E+04  -8.93025E+03  -1.41692E+03  -2.15886E+02
   1.78121E-01  -8.72729E+03  -1.01274E+04  -8.94104E+03  -1.40011E+03  -2.13755E+02
   1.79121E-01  -8.74018E+03  -1.01235E+04  -8.95180E+03  -1.38332E+03  -2.11624E+02
   1.80121E-01  -8.75304E+03  -1.01196E+04  -8.96254E+03  -1.36656E+03  -2.09494E+02
   1.81121E-01  -8.76588E+03  -1.01157E+04  -8.97324E+03  -1.34982E+03  -2.07365E+02
   1.82121E-01  -8.77868E+03  -1.01118E+04  -8.98392E+03  -1.33311E+03  -2.05237E+02
   1.83121E-01  -8.79145E+03  -1.01079E+04  -8.99456E+03  -1.31642E+03  -2.03109E+02
   1.84121E-01  -8.80420E+03  -1.01039E+04  -9.00518E+03  -1.29975E+03  -2.00982E+02
   1.85121E-01  -8.81691E+03  -1.01000E+04  -9.01577E+03  -1.28310E+03  -1.98856E+02
   1.86121E-01  -8.82960E+03  -1.00961E+04  -9.02633E+03  -1.26648E+03  -1.96731E+02
   1.87121E-01  -8.84226E+03  -1.00921E+04  -9.03686E+03  -1.24989E+03  -1.94606E+02
   1.88121E-01  -8.85488E+03  -1.00882E+04  -9.04737E+03  -1.23331E+03  -1.92482E+02
   1.89121E-01  -8.86748E+03  -1.00842E+04  -9.05784E+03  -1.21676E+03  -1.90358E+02
   1.90121E-01  -8.88005E+03  -1.00803E+04  -9.06829E+03  -1.20024E+03  -1.88235E+02
   1.91121E-01  -8.89260E+03  -1.00763E+04  -9.07871E+03  -1.18373E+03  -1.86112E+02
   1.92121E-01  -8.90511E+03  -1.00724E+04  -9.08910E+03  -1.16726E+03  -1.83991E+02
   1.93121E-01  -8.91759E+03  -1.00684E+04  -9.09946E+03  -1.15080E+03  -1.81869E+02
   1.94121E-01  -8.93005E+03  -1.00644E+04  -9.10980E+03  -1.13437E+03  -1.79748E+02
   1.95121E-01  -8.94248E+03  -1.00604E+04  -9.12011E+03  -1.11796E+03  -1.77628E+02
   1.96121E-01  -8.95488E+03  -1.00565E+04  -9.13039E+03  -1.10158E+03  -1.75508E+02
   1.97121E-01  -8.96725E+03  -1.00525E+04  -9.14064E+03  -1.08522E+03  -1.73388E+02
   1.98121E-01  -8.97960E+03  -1.00485E+04  -9.15086E+03  -1.06888E+03  -1.71269E+02
   1.99121E-01  -8.99191E+03  -1.00445E+04  -9.16106E+03  -1.05257E+03  -1.69150E+02
   1.99990E-01  -9.00259E+03  -1.00410E+04  -9.16990E+03  -1.03842E+03  -1.67310E+02

 Phase Region for:
     BCC_A2                        
     FCC_A1#1                      
     FCC_A1#2                      
     HCP_A3#1                      
     HCP_A3#2                      
 col-1=W(MN), col-2=GM(FCC_A1#1), col-3=GM(BCC_A2), col-4=GM(HCP_A3#1), col-5=GM1, col-6=GM2,
   5.12134E-03  -5.80232E+03  -1.04459E+04  -6.42216E+03  -4.64363E+03  -6.19849E+02
   4.12134E-03  -5.77533E+03  -1.04397E+04  -6.39796E+03  -4.66437E+03  -6.22628E+02
   3.12134E-03  -5.74756E+03  -1.04327E+04  -6.37297E+03  -4.68514E+03  -6.25414E+02
   2.12134E-03  -5.71874E+03  -1.04247E+04  -6.34695E+03  -4.70593E+03  -6.28208E+02
   1.12134E-03  -5.68835E+03  -1.04151E+04  -6.31936E+03  -4.72675E+03  -6.31010E+02
   1.21337E-04  -5.65453E+03  -1.04021E+04  -6.28835E+03  -4.74759E+03  -6.33820E+02
   1.10000E-04  -5.65409E+03  -1.04019E+04  -6.28795E+03  -4.74783E+03  -6.33852E+02
